#
#logT(K) H C for Z = 0., 0.01, 0.1, 0.2, 0.3, 1.0
#
1.0  1.643E-26  1.000E-22  1.642E-26  1.000E-22  1.641E-26  9.988E-23  1.639E-26  9.971E-23  1.637E-26  9.955E-23  1.622E-26  9.839E-23
1.1  1.906E-26  9.285E-23  1.907E-26  9.283E-23  1.913E-26  9.270E-23  1.919E-26  9.255E-23  1.925E-26  9.240E-23  1.964E-26  9.133E-23
1.2  2.204E-26  8.589E-23  2.207E-26  8.588E-23  2.237E-26  8.576E-23  2.270E-26  8.562E-23  2.302E-26  8.548E-23  2.522E-26  8.450E-23
1.3  2.538E-26  7.923E-23  2.548E-26  7.921E-23  2.636E-26  7.910E-23  2.733E-26  7.897E-23  2.829E-26  7.885E-23  3.482E-26  7.795E-23
1.4  2.911E-26  7.285E-23  2.934E-26  7.284E-23  3.132E-26  7.274E-23  3.352E-26  7.262E-23  3.569E-26  7.251E-23  5.046E-26  7.169E-23
1.5  3.327E-26  6.679E-23  3.369E-26  6.678E-23  3.743E-26  6.668E-23  4.156E-26  6.658E-23  4.566E-26  6.648E-23  7.347E-26  6.574E-23
1.6  3.791E-26  6.105E-23  3.860E-26  6.104E-23  4.478E-26  6.096E-23  5.159E-26  6.087E-23  5.835E-26  6.077E-23  1.042E-25  6.012E-23
1.7  4.304E-26  5.565E-23  4.408E-26  5.565E-23  5.335E-26  5.557E-23  6.358E-26  5.549E-23  7.374E-26  5.541E-23  1.427E-25  5.483E-23
1.8  4.869E-26  5.059E-23  5.016E-26  5.059E-23  6.330E-26  5.052E-23  7.779E-26  5.045E-23  9.218E-26  5.038E-23  1.899E-25  4.987E-23
1.9  5.490E-26  4.588E-23  5.692E-26  4.587E-23  7.505E-26  4.581E-23  9.506E-26  4.575E-23  1.149E-25  4.569E-23  2.499E-25  4.524E-23
2.0  6.171E-26  4.150E-23  6.448E-26  4.149E-23  8.937E-26  4.144E-23  1.168E-25  4.139E-23  1.441E-25  4.133E-23  3.296E-25  4.094E-23
2.1  6.925E-26  3.745E-23  7.304E-26  3.744E-23  1.071E-25  3.740E-23  1.447E-25  3.735E-23  1.821E-25  3.730E-23  4.362E-25  3.696E-23
2.2  7.749E-26  3.372E-23  8.262E-26  3.372E-23  1.286E-25  3.368E-23  1.794E-25  3.364E-23  2.298E-25  3.360E-23  5.731E-25  3.331E-23
2.3  8.650E-26  3.030E-23  9.343E-26  3.030E-23  1.556E-25  3.027E-23  2.243E-25  3.023E-23  2.925E-25  3.020E-23  7.573E-25  2.995E-23
2.4  9.634E-26  2.718E-23  1.051E-25  2.718E-23  1.840E-25  2.715E-23  2.711E-25  2.712E-23  3.576E-25  2.710E-23  9.473E-25  2.689E-23
2.5  1.071E-25  2.434E-23  1.179E-25  2.434E-23  2.148E-25  2.431E-23  3.219E-25  2.429E-23  4.283E-25  2.427E-23  1.153E-24  2.410E-23
2.6  1.190E-25  2.176E-23  1.318E-25  2.175E-23  2.461E-25  2.174E-23  3.723E-25  2.172E-23  4.978E-25  2.170E-23  1.353E-24  2.157E-23
2.7  1.320E-25  1.942E-23  1.466E-25  1.942E-23  2.771E-25  1.941E-23  4.213E-25  1.939E-23  5.646E-25  1.938E-23  1.542E-24  1.928E-23
2.8  1.461E-25  1.732E-23  1.623E-25  1.732E-23  3.073E-25  1.731E-23  4.674E-25  1.730E-23  6.265E-25  1.729E-23  1.711E-24  1.722E-23
2.9  1.614E-25  1.542E-23  1.789E-25  1.542E-23  3.359E-25  1.542E-23  5.092E-25  1.541E-23  6.814E-25  1.541E-23  1.856E-24  1.537E-23
3.0  1.781E-25  1.372E-23  1.966E-25  1.372E-23  3.625E-25  1.372E-23  5.457E-25  1.372E-23  7.277E-25  1.372E-23  1.969E-24  1.370E-23
3.1  1.967E-25  1.220E-23  2.162E-25  1.220E-23  3.905E-25  1.220E-23  5.830E-25  1.220E-23  7.743E-25  1.220E-23  2.078E-24  1.221E-23
3.2  2.173E-25  1.083E-23  2.370E-25  1.083E-23  4.142E-25  1.084E-23  6.097E-25  1.084E-23  8.041E-25  1.085E-23  2.128E-24  1.087E-23
3.3  2.396E-25  9.610E-24  2.593E-25  9.611E-24  4.361E-25  9.617E-24  6.313E-25  9.625E-24  8.252E-25  9.632E-24  2.147E-24  9.676E-24
3.4  2.637E-25  8.518E-24  2.831E-25  8.519E-24  4.573E-25  8.528E-24  6.496E-25  8.538E-24  8.406E-25  8.547E-24  2.142E-24  8.607E-24
3.5  2.897E-25  7.544E-24  3.087E-25  7.545E-24  4.790E-25  7.555E-24  6.671E-25  7.567E-24  8.539E-25  7.578E-24  2.127E-24  7.652E-24
3.6  3.188E-25  6.674E-24  3.374E-25  6.675E-24  5.045E-25  6.687E-24  6.889E-25  6.701E-24  8.721E-25  6.714E-24  2.120E-24  6.799E-24
3.7  3.504E-25  5.899E-24  3.692E-25  5.901E-24  5.378E-25  5.914E-24  7.239E-25  5.928E-24  9.088E-25  5.943E-24  2.168E-24  6.038E-24
3.8  3.844E-25  5.209E-24  4.043E-25  5.210E-24  5.824E-25  5.225E-24  7.791E-25  5.240E-24  9.744E-25  5.256E-24  2.303E-24  5.360E-24
3.9  4.222E-25  4.593E-24  4.454E-25  4.594E-24  6.529E-25  4.610E-24  8.820E-25  4.627E-24  1.109E-24  4.643E-24  2.655E-24  4.755E-24
4.0  4.823E-25  4.043E-24  5.125E-25  4.045E-24  7.830E-25  4.061E-24  1.081E-24  4.079E-24  1.377E-24  4.097E-24  3.387E-24  4.215E-24
4.1  7.103E-25  3.552E-24  7.534E-25  3.554E-24  1.139E-24  3.571E-24  1.565E-24  3.589E-24  1.987E-24  3.608E-24  4.847E-24  3.732E-24
4.2  1.697E-24  3.101E-24  1.763E-24  3.103E-24  2.357E-24  3.121E-24  3.012E-24  3.140E-24  3.661E-24  3.159E-24  8.036E-24  3.290E-24
4.3  4.834E-24  2.621E-24  4.940E-24  2.623E-24  5.893E-24  2.642E-24  6.942E-24  2.664E-24  7.980E-24  2.685E-24  1.496E-23  2.826E-24
4.4  1.013E-23  2.031E-24  1.030E-23  2.033E-24  1.184E-23  2.055E-24  1.354E-23  2.078E-24  1.522E-23  2.101E-24  2.655E-23  2.258E-24
4.5  1.316E-23  1.482E-24  1.344E-23  1.484E-24  1.597E-23  1.506E-24  1.876E-23  1.529E-24  2.152E-23  1.553E-24  4.024E-23  1.712E-24
4.6  1.214E-23  1.125E-24  1.260E-23  1.127E-24  1.672E-23  1.148E-24  2.126E-23  1.171E-24  2.577E-23  1.193E-24  5.635E-23  1.348E-24
4.7  1.055E-23  9.115E-25  1.128E-23  9.137E-25  1.778E-23  9.340E-25  2.496E-23  9.564E-25  3.207E-23  9.786E-25  8.038E-23  1.131E-24
4.8  1.347E-23  7.506E-25  1.456E-23  7.528E-25  2.429E-23  7.727E-25  3.503E-23  7.947E-25  4.569E-23  8.166E-25  1.180E-22  9.660E-25
4.9  2.457E-23  5.316E-25  2.608E-23  5.337E-25  3.965E-23  5.529E-25  5.461E-23  5.741E-25  6.946E-23  5.951E-25  1.702E-22  7.394E-25
5.0  2.960E-23  2.511E-25  3.149E-23  2.530E-25  4.842E-23  2.702E-25  6.710E-23  2.892E-25  8.563E-23  3.082E-25  2.114E-22  4.380E-25
5.1  2.297E-23  8.794E-26  2.498E-23  8.948E-26  4.300E-23  1.033E-25  6.287E-23  1.185E-25  8.259E-23  1.337E-25  2.165E-22  2.381E-25
5.2  1.568E-23  2.977E-26  1.790E-23  3.097E-26  3.784E-23  4.174E-26  5.984E-23  5.365E-26  8.169E-23  6.551E-26  2.301E-22  1.471E-25
5.3  1.081E-23  1.120E-26  1.331E-23  1.211E-26  3.573E-23  2.030E-26  6.048E-23  2.936E-26  8.505E-23  3.838E-26  2.520E-22  1.005E-25
5.4  7.822E-24  4.829E-27  1.040E-23  5.489E-27  3.356E-23  1.141E-26  5.912E-23  1.797E-26  8.450E-23  2.450E-26  2.570E-22  6.945E-26
5.5  5.958E-24  2.358E-27  7.721E-24  2.770E-27  2.354E-23  6.475E-27  4.100E-23  1.058E-26  5.834E-23  1.466E-26  1.763E-22  4.277E-26
5.6  4.790E-24  1.274E-27  6.170E-24  1.572E-27  1.854E-23  4.249E-27  3.220E-23  7.212E-27  4.576E-23  1.016E-26  1.380E-22  3.048E-26
5.7  4.143E-24  7.463E-28  5.458E-24  9.832E-28  1.726E-23  3.112E-27  3.028E-23  5.467E-27  4.321E-23  7.814E-27  1.312E-22  2.397E-26
5.8  3.622E-24  4.651E-28  4.624E-24  6.395E-28  1.361E-23  2.206E-27  2.354E-23  3.939E-27  3.340E-23  5.666E-27  1.005E-22  1.755E-26
5.9  3.304E-24  3.045E-28  4.100E-24  4.382E-28  1.124E-23  1.640E-27  1.913E-23  2.970E-27  2.696E-23  4.294E-27  8.025E-23  1.341E-26
6.0  3.124E-24  2.073E-28  3.893E-24  3.188E-28  1.079E-23  1.321E-27  1.841E-23  2.430E-27  2.597E-23  3.534E-27  7.747E-23  1.114E-26
6.1  3.078E-24  1.456E-28  3.765E-24  2.381E-28  9.932E-24  1.069E-27  1.674E-23  1.988E-27  2.350E-23  2.904E-27  6.956E-23  9.208E-27
6.2  3.104E-24  1.049E-28  3.656E-24  1.800E-28  8.607E-24  8.547E-28  1.407E-23  1.602E-27  1.950E-23  2.346E-27  5.648E-23  7.475E-27
6.3  3.185E-24  7.702E-29  3.539E-24  1.324E-28  6.715E-24  6.296E-28  1.022E-23  1.180E-27  1.370E-23  1.729E-27  3.742E-23  5.517E-27
6.4  3.311E-24  5.748E-29  3.524E-24  9.503E-29  5.436E-24  4.325E-28  7.548E-24  8.065E-28  9.645E-24  1.179E-27  2.393E-23  3.757E-27
6.5  3.473E-24  4.348E-29  3.612E-24  6.913E-29  4.863E-24  2.998E-28  6.244E-24  5.554E-28  7.615E-24  8.105E-28  1.696E-23  2.579E-27
6.6  3.736E-24  3.325E-29  3.835E-24  5.230E-29  4.727E-24  2.236E-28  5.712E-24  4.137E-28  6.690E-24  6.035E-28  1.335E-23  1.925E-27
6.7  4.040E-24  2.564E-29  4.123E-24  4.133E-29  4.869E-24  1.825E-28  5.693E-24  3.393E-28  6.511E-24  4.962E-28  1.208E-23  1.593E-27
6.8  4.381E-24  1.991E-29  4.456E-24  3.370E-29  5.123E-24  1.580E-28  5.860E-24  2.962E-28  6.591E-24  4.347E-28  1.157E-23  1.409E-27
6.9  4.757E-24  1.553E-29  4.830E-24  2.778E-29  5.485E-24  1.383E-28  6.207E-24  2.615E-28  6.924E-24  3.851E-28  1.180E-23  1.263E-27
7.0  5.166E-24  1.216E-29  5.237E-24  2.313E-29  5.878E-24  1.223E-28  6.586E-24  2.332E-28  7.289E-24  3.450E-28  1.207E-23  1.150E-27
7.1  5.724E-24  9.537E-30  5.790E-24  1.819E-29  6.390E-24  9.662E-29  7.051E-24  1.849E-28  7.707E-24  2.744E-28  1.217E-23  9.349E-28
7.2  6.338E-24  7.491E-30  6.390E-24  1.326E-29  6.860E-24  6.584E-29  7.379E-24  1.256E-28  7.894E-24  1.867E-28  1.139E-23  6.534E-28
7.3  7.008E-24  5.883E-30  7.045E-24  9.286E-30  7.384E-24  4.054E-29  7.757E-24  7.658E-29  8.127E-24  1.140E-28  1.065E-23  4.148E-28
7.4  7.733E-24  4.621E-30  7.761E-24  6.632E-30  8.016E-24  2.532E-29  8.297E-24  4.731E-29  8.577E-24  7.059E-29  1.047E-23  2.698E-28
7.5  8.510E-24  3.628E-30  8.533E-24  4.838E-30  8.740E-24  1.620E-29  8.968E-24  2.981E-29  9.193E-24  4.447E-29  1.073E-23  1.763E-28
7.6  9.532E-24  2.847E-30  9.551E-24  3.643E-30  9.727E-24  1.118E-29  9.922E-24  2.032E-29  1.011E-23  3.027E-29  1.142E-23  1.226E-28
7.7  1.065E-23  2.232E-30  1.066E-23  2.777E-30  1.082E-23  7.949E-30  1.100E-23  1.424E-29  1.118E-23  2.110E-29  1.236E-23  8.518E-29
7.8  1.184E-23  1.747E-30  1.186E-23  2.140E-30  1.201E-23  5.850E-30  1.217E-23  1.034E-29  1.234E-23  1.522E-29  1.346E-23  6.022E-29
7.9  1.308E-23  1.366E-30  1.310E-23  1.654E-30  1.327E-23  4.351E-30  1.345E-23  7.574E-30  1.363E-23  1.103E-29  1.487E-23  4.189E-29
8.0  1.432E-23  1.066E-30  1.434E-23  1.284E-30  1.452E-23  3.306E-30  1.472E-23  5.684E-30  1.491E-23  8.199E-30  1.625E-23  2.965E-29
8.1  1.576E-23  8.309E-31  1.578E-23  9.968E-31  1.596E-23  2.524E-30  1.616E-23  4.292E-30  1.635E-23  6.136E-30  1.767E-23  2.117E-29
8.2  1.710E-23  6.466E-31  1.712E-23  7.730E-31  1.729E-23  1.929E-30  1.747E-23  3.253E-30  1.766E-23  4.619E-30  1.891E-23  1.534E-29
8.3  1.824E-23  5.024E-31  1.826E-23  5.984E-31  1.842E-23  1.473E-30  1.859E-23  2.467E-30  1.876E-23  3.483E-30  1.992E-23  1.124E-29
8.4  1.914E-23  3.898E-31  1.916E-23  4.627E-31  1.930E-23  1.124E-30  1.946E-23  1.871E-30  1.962E-23  2.631E-30  2.068E-23  8.308E-30
8.5  1.978E-23  3.021E-31  1.979E-23  3.574E-31  1.992E-23  8.586E-31  2.007E-23  1.422E-30  2.021E-23  1.993E-30  2.117E-23  6.185E-30
8.6  2.041E-23  2.338E-31  2.042E-23  2.760E-31  2.054E-23  6.569E-31  2.067E-23  1.084E-30  2.080E-23  1.514E-30  2.168E-23  4.635E-30
8.7  2.082E-23  1.808E-31  2.083E-23  2.130E-31  2.094E-23  5.035E-31  2.106E-23  8.282E-31  2.118E-23  1.155E-30  2.199E-23  3.494E-30
8.8  2.109E-23  1.396E-31  2.111E-23  1.643E-31  2.121E-23  3.867E-31  2.132E-23  6.346E-31  2.143E-23  8.834E-31  2.216E-23  2.648E-30
8.9  2.134E-23  1.078E-31  2.136E-23  1.267E-31  2.145E-23  2.974E-31  2.155E-23  4.873E-31  2.165E-23  6.775E-31  2.231E-23  2.016E-30
9.0  2.174E-23  8.309E-32  2.175E-23  9.768E-32  2.183E-23  2.290E-31  2.192E-23  3.748E-31  2.201E-23  5.207E-31  2.260E-23  1.540E-30
